      74794      28.47N   80.57W
     T A B L E  I -   1.  W I N D  S T A T I S T I C A L  P A R A M E T E R S
                                   January
 Station =   74794      Cape Canaveral Air Force Station
    Z    MEAN U   SD  U  R(U,V)  MEAN V   SD  V MEAN WS  SD  WS SKEW WS    NOBS
    KM     M/S     M/S             M/S     M/S     M/S     M/S                 
  0.000    0.00    0.00  0.0000    0.00    0.00    0.00    0.00    0.00       0
  0.004   -0.07    2.67 -0.3456   -0.08    2.85    3.27    2.13    0.89    1108
  0.500    0.48    6.37 -0.0887    0.94    7.08    8.63    4.30    0.69    1108
  1.000    1.96    6.85 -0.0405    1.66    6.49    8.65    4.66    0.84    1108
  1.500    4.07    7.01 -0.0450    1.73    6.37    9.01    5.32    0.81    1108
  2.000    5.87    7.25 -0.0096    1.59    6.31    9.82    5.83    0.76    1108
  2.500    7.46    7.75 -0.0176    1.62    6.47   10.92    6.43    0.74    1108
  3.000    9.03    8.39  0.0119    1.65    6.65   12.22    7.05    0.68    1108
  3.500   10.66    8.99  0.0321    1.60    6.96   13.70    7.64    0.62    1108
  4.000   12.26    9.51  0.0666    1.64    7.37   15.17    8.23    0.57    1108
  4.500   13.90   10.00  0.0889    1.81    7.70   16.72    8.76    0.48    1108
  5.000   15.56   10.41  0.0989    1.98    8.13   18.35    9.18    0.37    1108
  5.500   17.03   10.90  0.1090    2.28    8.55   19.89    9.57    0.30    1108
  6.000   18.53   11.62  0.1137    2.50    8.81   21.48   10.06    0.24    1108
  6.500   20.09   12.37  0.1247    2.60    9.20   23.12   10.68    0.22    1108
  7.000   21.73   13.09  0.1526    2.61    9.70   24.85   11.25    0.25    1108
  7.500   23.37   13.72  0.1663    2.73   10.13   26.56   11.81    0.22    1108
  8.000   25.02   14.33  0.1773    2.83   10.61   28.22   12.49    0.19    1108
  8.500   26.78   14.90  0.1830    2.98   11.09   29.93   13.25    0.15    1108
  9.000   28.58   15.60  0.1858    2.99   11.66   31.73   14.11    0.13    1108
  9.500   30.53   16.45  0.1888    2.97   12.26   33.66   15.13    0.15    1108
 10.000   32.51   17.15  0.1860    2.87   12.70   35.58   15.97    0.14    1108
 10.500   34.44   17.58  0.1904    2.89   13.00   37.42   16.52    0.06    1108
 11.000   36.29   17.73  0.2085    3.08   13.24   39.14   16.85   -0.01    1108
 11.500   37.95   17.59  0.2391    3.38   13.29   40.68   16.83   -0.07    1108
 12.000   39.22   17.37  0.2518    3.49   12.92   41.76   16.65   -0.13    1108
 12.500   39.88   17.06  0.2779    3.49   12.19   42.15   16.30   -0.15    1108
 13.000   39.90   16.52  0.2864    3.51   11.23   41.95   15.67   -0.13    1108
 13.500   39.07   15.91  0.2680    3.21   10.38   40.95   14.90   -0.13    1108
 14.000   37.62   15.27  0.2459    2.97    9.79   39.41   14.15   -0.13    1108
 14.500   35.60   14.46  0.2349    2.98    9.47   37.42   13.28   -0.13    1108
 15.000   33.19   13.76  0.2213    2.96    9.08   35.06   12.44   -0.09    1108
 15.500   30.65   13.00  0.2095    2.86    8.63   32.53   11.57   -0.15    1108
 16.000   28.35   12.42  0.1807    2.77    7.97   30.22   10.86   -0.08    1108
 16.500   25.78   11.85  0.1174    2.28    7.29   27.57   10.23    0.04    1108
 17.000   22.93   11.17  0.0934    2.02    6.74   24.75    9.40   -0.00    1105
 17.500   19.99   10.40  0.1020    1.86    6.15   21.88    8.49    0.09    1099
 18.000   17.19    9.71  0.1228    1.64    5.75   19.09    7.85    0.26    1085
 18.500   14.68    9.10  0.1157    1.27    5.11   16.59    7.23    0.53    1049
 19.000   12.17    8.47  0.0959    0.97    4.59   14.15    6.58    0.58    1022
 19.500   10.03    8.03  0.1068    0.70    4.47   12.14    6.20    0.64    1016
 20.000    8.24    7.83  0.1505    0.48    3.85   10.55    5.87    0.88     979
 20.500    7.00    7.79  0.1366    0.40    3.74    9.53    5.85    1.14     945
 21.000    6.08    7.85  0.1726    0.31    3.70    8.84    5.90    1.43     932
 21.500    5.25    7.84  0.1764    0.24    3.52    8.38    5.70    1.47     908
 22.000    4.65    8.02  0.1564    0.15    3.50    8.17    5.67    1.46     894
 22.500    4.34    8.34  0.1637    0.13    3.69    8.36    5.74    1.46     891
 23.000    3.97    8.79  0.1740    0.03    3.75    8.56    5.91    1.48     878
 23.500    3.87    9.33  0.1891    0.11    3.88    8.88    6.21    1.45     860
 24.000    3.76   10.09  0.2127    0.05    3.94    9.45    6.53    1.42     854
 24.500    3.85   10.81  0.2452   -0.00    4.03   10.06    6.87    1.44     837
 25.000    4.14   11.56  0.2720    0.04    4.23   10.70    7.36    1.40     813
 25.500    4.43   12.13  0.3135    0.03    4.36   11.30    7.65    1.38     807
 26.000    4.97   12.82  0.3492    0.18    4.53   12.01    8.12    1.33     788
 26.500    5.30   13.61  0.3605    0.28    4.74   12.73    8.60    1.27     766
 27.000    5.81   14.07  0.3186    0.31    4.80   13.42    8.69    1.22     736
 27.500    6.25   14.47  0.3112    0.39    4.94   13.92    8.93    1.10     696
 28.000    6.48   14.43  0.3121    0.64    4.94   14.15    8.67    0.86     674
 28.500    6.86   14.74  0.2575    0.93    5.09   14.66    8.80    0.76     623
 29.000    7.33   15.20  0.2419    1.20    5.18   15.13    9.21    0.77     580
 29.500    8.16   15.53  0.2300    1.54    5.64   15.92    9.45    0.66     554
 30.000    8.82   15.79  0.1969    1.61    6.16   16.62    9.68    0.59     521
     T A B L E  I -   2.  W I N D  S T A T I S T I C A L  P A R A M E T E R S
                                  February
 Station =   74794      Cape Canaveral Air Force Station
    Z    MEAN U   SD  U  R(U,V)  MEAN V   SD  V MEAN WS  SD  WS SKEW WS    NOBS
    KM     M/S     M/S             M/S     M/S     M/S     M/S                 
  0.000    0.00    0.00  0.0000    0.00    0.00    0.00    0.00    0.00       0
  0.004   -0.08    2.96 -0.2713   -0.10    2.84    3.47    2.19    0.73    1248
  0.500    0.88    6.51 -0.0332    1.01    6.57    8.47    4.10    0.68    1248
  1.000    2.61    7.12 -0.0357    1.54    5.93    8.64    4.62    0.93    1248
  1.500    4.76    7.20 -0.0609    1.38    5.70    9.02    5.28    0.96    1248
  2.000    6.56    7.46 -0.0485    1.09    5.78    9.92    5.99    0.96    1248
  2.500    8.21    8.04 -0.0103    0.99    6.00   11.13    6.76    1.01    1248
  3.000    9.80    8.67  0.0483    1.02    6.37   12.58    7.43    0.99    1248
  3.500   11.40    9.22  0.0925    1.14    6.69   14.05    8.02    0.88    1248
  4.000   13.12    9.80  0.1132    1.19    7.16   15.67    8.68    0.77    1248
  4.500   14.78   10.26  0.1262    1.38    7.60   17.33    9.13    0.70    1248
  5.000   16.30   10.93  0.1325    1.51    8.13   18.93    9.77    0.69    1248
  5.500   18.11   11.93  0.1321    1.61    8.63   20.80   10.70    0.71    1248
  6.000   19.85   12.71  0.1794    1.80    8.82   22.56   11.32    0.70    1248
  6.500   21.37   13.28  0.2096    1.88    9.22   24.16   11.77    0.62    1248
  7.000   22.93   13.86  0.2237    2.01    9.82   25.80   12.36    0.53    1248
  7.500   24.57   14.39  0.2267    2.00   10.21   27.44   12.92    0.42    1248
  8.000   26.32   15.15  0.2351    1.98   10.62   29.19   13.68    0.38    1248
  8.500   28.17   16.04  0.2384    1.96   11.14   31.10   14.54    0.35    1248
  9.000   30.11   16.95  0.2376    1.73   11.79   33.18   15.36    0.31    1248
  9.500   32.00   17.75  0.2409    1.61   12.47   35.16   16.17    0.26    1248
 10.000   33.93   18.26  0.2443    1.49   13.15   37.11   16.83    0.18    1248
 10.500   35.92   18.55  0.2549    1.57   13.69   39.03   17.36    0.08    1248
 11.000   37.87   18.52  0.2527    1.57   14.20   40.93   17.51   -0.07    1248
 11.500   39.58   18.28  0.2539    1.58   14.37   42.54   17.35   -0.19    1248
 12.000   40.75   17.78  0.2539    1.84   14.00   43.50   16.88   -0.31    1248
 12.500   41.25   17.14  0.2711    2.20   13.13   43.71   16.19   -0.37    1248
 13.000   40.99   16.45  0.2816    2.32   12.03   43.15   15.52   -0.36    1248
 13.500   40.17   15.78  0.2907    2.14   11.06   42.06   14.90   -0.33    1248
 14.000   38.75   15.14  0.2880    2.04   10.24   40.47   14.23   -0.27    1248
 14.500   36.77   14.33  0.2592    1.83    9.62   38.46   13.28   -0.21    1248
 15.000   34.37   13.53  0.2419    1.66    9.29   36.10   12.28   -0.21    1248
 15.500   31.76   12.87  0.2638    1.57    8.82   33.52   11.49   -0.22    1248
 16.000   29.13   12.31  0.2742    1.58    8.26   30.90   10.87   -0.16    1248
 16.500   26.61   11.89  0.2542    1.50    7.75   28.42   10.26   -0.06    1248
 17.000   23.63   11.19  0.2427    1.08    7.09   25.45    9.39   -0.05    1247
 17.500   20.37   10.34  0.2094    0.65    6.57   22.32    8.34   -0.02    1243
 18.000   17.14    9.56  0.1875    0.47    6.09   19.16    7.47    0.10    1230
 18.500   14.29    8.72  0.1454    0.28    5.36   16.29    6.74    0.22    1206
 19.000   11.70    7.99  0.1490    0.16    4.88   13.76    6.10    0.37    1174
 19.500    9.52    7.49  0.1521   -0.05    4.42   11.61    5.62    0.46    1157
 20.000    7.60    7.22  0.1424   -0.07    3.86    9.97    5.18    0.61    1119
 20.500    6.13    7.10  0.1217   -0.12    3.70    8.89    4.91    0.83    1063
 21.000    5.02    7.07  0.0878   -0.18    3.63    8.19    4.68    0.90    1042
 21.500    4.30    7.17  0.0551   -0.25    3.43    7.87    4.61    1.04    1014
 22.000    3.87    7.38  0.0086   -0.32    3.57    7.75    4.77    0.97    1003
 22.500    3.51    7.74  0.0305   -0.30    3.72    7.86    5.00    1.11     997
 23.000    3.33    8.29  0.0218   -0.36    3.63    8.12    5.30    1.30     986
 23.500    3.11    8.89  0.0445   -0.39    3.65    8.29    5.80    1.32     976
 24.000    3.08    9.40  0.0456   -0.32    3.75    8.75    6.01    1.44     969
 24.500    3.14    9.97  0.0624   -0.20    3.81    9.18    6.33    1.46     944
 25.000    3.39   10.48  0.1261   -0.15    4.03    9.64    6.70    1.44     925
 25.500    3.61   10.99  0.1768   -0.10    3.90   10.11    6.89    1.46     910
 26.000    3.88   11.57  0.1800   -0.01    3.96   10.62    7.26    1.46     889
 26.500    4.46   12.13  0.2009   -0.03    4.04   11.16    7.68    1.39     870
 27.000    4.99   12.68  0.2112    0.08    4.23   11.81    8.06    1.39     824
 27.500    5.37   13.52  0.2313    0.09    4.52   12.58    8.61    1.36     768
 28.000    6.11   14.10  0.2707    0.40    4.80   13.43    8.91    1.25     739
 28.500    7.26   14.20  0.2475    0.47    5.09   14.05    9.19    1.30     683
 29.000    8.32   14.49  0.2453    0.72    5.37   14.77    9.53    1.23     637
 29.500    9.10   14.94  0.2322    0.89    5.75   15.46   10.09    1.12     624
 30.000   10.15   15.34  0.3162    0.89    6.18   16.41   10.54    1.09     577
     T A B L E  I -   3.  W I N D  S T A T I S T I C A L  P A R A M E T E R S
                                     March
 Station =   74794      Cape Canaveral Air Force Station
    Z    MEAN U   SD  U  R(U,V)  MEAN V   SD  V MEAN WS  SD  WS SKEW WS    NOBS
    KM     M/S     M/S             M/S     M/S     M/S     M/S                 
  0.000    0.00    0.00  0.0000    0.00    0.00    0.00    0.00    0.00       0
  0.004   -0.57    3.20 -0.2386    0.19    2.99    3.81    2.25    0.70    1424
  0.500   -0.12    7.00 -0.0502    1.30    6.61    8.83    4.16    0.70    1424
  1.000    1.60    7.47  0.0186    1.49    6.17    8.82    4.66    0.96    1424
  1.500    3.67    7.71  0.0509    1.30    6.08    9.23    5.17    0.92    1424
  2.000    5.32    7.84  0.0518    0.99    6.16    9.79    5.80    0.84    1424
  2.500    6.70    8.27  0.0568    0.68    6.39   10.69    6.38    0.81    1424
  3.000    8.12    8.90  0.0659    0.50    6.69   11.87    7.03    0.80    1424
  3.500    9.63    9.39  0.0879    0.36    6.91   13.07    7.64    0.76    1424
  4.000   11.09    9.84  0.1263    0.29    7.14   14.19    8.34    0.69    1424
  4.500   12.50   10.23  0.1527    0.31    7.48   15.36    9.01    0.63    1424
  5.000   13.93   10.72  0.1733    0.45    7.83   16.79    9.44    0.57    1424
  5.500   15.49   11.31  0.1750    0.58    8.27   18.40    9.92    0.51    1424
  6.000   17.14   12.09  0.1883    0.75    8.54   20.10   10.48    0.53    1424
  6.500   18.75   13.02  0.2085    0.85    9.00   21.82   11.27    0.56    1424
  7.000   20.32   13.95  0.2330    0.91    9.65   23.55   12.11    0.59    1424
  7.500   21.89   14.79  0.2497    1.09   10.19   25.23   12.93    0.61    1424
  8.000   23.57   15.67  0.2485    1.18   10.73   26.97   13.81    0.59    1424
  8.500   25.28   16.51  0.2453    1.25   11.30   28.74   14.67    0.54    1424
  9.000   27.14   17.31  0.2323    1.14   11.83   30.65   15.44    0.48    1424
  9.500   29.15   18.07  0.2098    0.95   12.49   32.69   16.26    0.39    1424
 10.000   31.17   18.65  0.1876    0.75   13.20   34.78   16.88    0.31    1424
 10.500   33.17   19.13  0.1817    0.50   13.92   36.80   17.52    0.26    1424
 11.000   35.11   19.30  0.1816    0.35   14.48   38.69   17.83    0.19    1424
 11.500   36.88   19.08  0.2012    0.30   14.81   40.40   17.65    0.08    1424
 12.000   38.16   18.65  0.2189    0.30   14.57   41.46   17.27   -0.06    1424
 12.500   38.92   17.96  0.2210    0.34   14.01   41.87   16.75   -0.18    1424
 13.000   38.65   17.06  0.2385    0.51   12.95   41.28   15.82   -0.23    1424
 13.500   37.64   16.28  0.2501    0.54   11.71   39.95   14.98   -0.21    1424
 14.000   36.25   15.63  0.2350    0.68   10.63   38.31   14.29   -0.17    1424
 14.500   34.38   14.68  0.2145    0.68    9.64   36.31   13.20   -0.21    1424
 15.000   32.07   13.86  0.2136    0.72    9.03   33.97   12.24   -0.25    1424
 15.500   29.40   13.20  0.2180    0.76    8.38   31.31   11.40   -0.21    1424
 16.000   26.73   12.39  0.2130    0.87    7.72   28.66   10.45   -0.19    1424
 16.500   23.96   11.54  0.1901    0.73    7.39   25.92    9.56   -0.20    1424
 17.000   20.92   10.52  0.1219    0.31    6.55   22.83    8.46   -0.17    1424
 17.500   17.89    9.61  0.1117    0.22    5.99   19.84    7.54    0.05    1409
 18.000   15.07    8.85  0.1352    0.26    5.61   16.98    6.98    0.22    1384
 18.500   12.33    8.03  0.0764   -0.13    4.86   14.22    6.32    0.44    1355
 19.000    9.78    7.28  0.0608   -0.17    4.39   11.74    5.65    0.57    1300
 19.500    7.76    6.81  0.0688   -0.23    4.09    9.85    5.14    0.49    1292
 20.000    6.09    6.31  0.0416   -0.43    3.65    8.48    4.48    0.69    1244
 20.500    4.66    5.94  0.0617   -0.43    3.50    7.37    4.02    0.79    1212
 21.000    3.92    5.83  0.0906   -0.38    3.48    6.92    3.77    0.71    1197
 21.500    3.36    5.97  0.0671   -0.55    3.30    6.79    3.69    0.82    1175
 22.000    2.76    6.30  0.0197   -0.62    3.43    6.76    3.81    0.88    1149
 22.500    2.27    6.72  0.0159   -0.62    3.67    6.95    4.09    0.95    1140
 23.000    2.00    7.26  0.0250   -0.50    3.52    7.10    4.51    1.23    1128
 23.500    1.91    7.98  0.0008   -0.44    3.46    7.32    5.13    1.42    1114
 24.000    2.14    8.54 -0.0191   -0.36    3.31    7.61    5.61    1.61    1103
 24.500    2.37    9.30 -0.0031   -0.29    3.33    8.14    6.17    1.66    1071
 25.000    2.83    9.94  0.0363   -0.30    3.51    8.66    6.66    1.58    1043
 25.500    3.51   10.62  0.0915   -0.35    3.42    9.36    7.09    1.60    1031
 26.000    3.96   11.20  0.1314   -0.32    3.54    9.95    7.46    1.59    1011
 26.500    4.62   11.92  0.1631   -0.15    3.73   10.74    7.88    1.52     998
 27.000    5.45   12.30  0.1853   -0.06    3.75   11.44    8.06    1.46     954
 27.500    6.47   12.66  0.2292    0.12    3.92   12.23    8.29    1.38     903
 28.000    7.51   13.08  0.2510    0.32    4.23   13.15    8.55    1.29     879
 28.500    8.58   13.42  0.2810    0.44    4.26   14.04    8.73    1.18     831
 29.000    9.58   13.95  0.2959    0.58    4.38   15.08    8.90    1.07     794
 29.500   10.63   14.45  0.2886    0.63    4.76   16.23    9.09    0.93     764
 30.000   11.61   14.36  0.2679    0.72    5.08   16.93    9.11    0.84     712
     T A B L E  I -   4.  W I N D  S T A T I S T I C A L  P A R A M E T E R S
                                     April
 Station =   74794      Cape Canaveral Air Force Station
    Z    MEAN U   SD  U  R(U,V)  MEAN V   SD  V MEAN WS  SD  WS SKEW WS    NOBS
    KM     M/S     M/S             M/S     M/S     M/S     M/S                 
  0.000    0.00    0.00  0.0000    0.00    0.00    0.00    0.00    0.00       0
  0.004   -0.98    3.04 -0.1654    0.43    3.03    3.86    2.15    0.56    1274
  0.500   -0.78    5.84 -0.0551    1.52    5.93    7.75    3.58    0.76    1274
  1.000    0.65    6.23  0.0652    1.31    5.17    7.27    3.96    1.25    1274
  1.500    2.21    6.58  0.1152    0.86    4.91    7.37    4.36    1.20    1274
  2.000    3.56    6.91  0.1020    0.45    5.05    7.89    4.96    1.11    1274
  2.500    4.55    7.34  0.1076    0.23    5.24    8.48    5.53    1.07    1274
  3.000    5.47    7.75  0.1131    0.04    5.47    9.13    6.07    1.15    1274
  3.500    6.49    8.12  0.1156   -0.21    5.68    9.87    6.58    1.15    1274
  4.000    7.58    8.54  0.1077   -0.51    5.88   10.67    7.18    1.10    1274
  4.500    8.80    8.90  0.1170   -0.71    6.05   11.58    7.74    1.07    1274
  5.000    9.94    9.21  0.1163   -0.90    6.28   12.59    8.10    1.05    1274
  5.500   11.20    9.61  0.1280   -1.00    6.60   13.78    8.52    0.98    1274
  6.000   12.59   10.16  0.1625   -1.07    6.90   15.16    9.00    0.89    1274
  6.500   14.08   10.69  0.1884   -1.06    7.27   16.64    9.50    0.85    1274
  7.000   15.40   11.22  0.2034   -1.13    7.81   18.04    9.99    0.79    1274
  7.500   16.84   11.84  0.2210   -1.21    8.33   19.54   10.65    0.76    1274
  8.000   18.31   12.53  0.2390   -1.24    9.00   21.09   11.42    0.72    1274
  8.500   19.81   13.18  0.2355   -1.24    9.73   22.68   12.17    0.64    1274
  9.000   21.35   13.88  0.2228   -1.35   10.46   24.38   12.87    0.60    1274
  9.500   22.90   14.77  0.2085   -1.52   11.07   26.08   13.69    0.54    1274
 10.000   24.64   15.72  0.2016   -1.75   11.60   27.91   14.61    0.52    1274
 10.500   26.47   16.51  0.2208   -2.03   12.37   29.90   15.40    0.50    1274
 11.000   28.20   17.17  0.2389   -2.32   13.16   31.79   16.07    0.45    1274
 11.500   29.74   17.51  0.2663   -2.44   13.75   33.43   16.41    0.38    1274
 12.000   31.17   17.44  0.2999   -2.39   13.87   34.76   16.33    0.30    1274
 12.500   32.30   17.04  0.3260   -2.31   13.50   35.63   15.85    0.22    1274
 13.000   32.64   16.14  0.3532   -2.06   12.66   35.62   14.93    0.21    1274
 13.500   32.25   15.15  0.3753   -1.81   11.76   34.94   13.84    0.22    1274
 14.000   31.09   13.99  0.3809   -1.69   10.75   33.49   12.65    0.20    1274
 14.500   29.46   13.04  0.3849   -1.44    9.54   31.55   11.72    0.19    1274
 15.000   27.55   12.04  0.3454   -1.28    8.80   29.46   10.78    0.25    1274
 15.500   25.30   11.09  0.3110   -1.34    8.33   27.16    9.87    0.34    1274
 16.000   22.75   10.16  0.2880   -1.27    7.70   24.58    8.91    0.28    1274
 16.500   20.23    9.23  0.2516   -0.99    7.14   21.98    8.03    0.22    1274
 17.000   17.68    8.44  0.2229   -0.79    6.61   19.40    7.29    0.20    1274
 17.500   14.85    7.63  0.2105   -0.84    5.91   16.54    6.54    0.20    1269
 18.000   11.86    6.91  0.1980   -0.81    5.50   13.62    5.86    0.34    1252
 18.500    9.06    6.11  0.2007   -0.62    5.03   10.96    5.15    0.60    1238
 19.000    6.81    5.72  0.2122   -0.51    4.30    8.86    4.60    0.78    1212
 19.500    4.86    5.25  0.1328   -0.65    3.89    7.20    3.88    0.83    1191
 20.000    3.37    4.68  0.1057   -0.52    3.52    6.09    3.23    0.91    1150
 20.500    2.24    4.51  0.1220   -0.47    3.28    5.38    2.98    0.91    1126
 21.000    1.42    4.49  0.0939   -0.45    3.26    5.12    2.73    0.74    1113
 21.500    0.59    4.61  0.0331   -0.59    3.03    5.05    2.76    1.12    1087
 22.000   -0.01    5.06 -0.0400   -0.51    3.15    5.14    3.20    1.50    1069
