        723810   34.92N  117.90W
     T A B L E  I -  1.  W I N D  S T A T I S T I C A L  P A R A M E T E R S   
                                   January 
 Station =   723810     Edwards Air Force Base, California      
    Z    MEAN U   SD  U  R(U,V)  MEAN V   SD  V MEAN WS  SD  WS SKEW WS    NOBS
    KM     M/S     M/S             M/S     M/S     M/S     M/S                 
   .000     .00     .00   .0000     .00     .00     .00     .00     .00       0
   .724     .83    3.09   .5256     .23    2.10    2.73    2.69    1.72     287
   .750    1.11    3.34   .5841     .27    2.14    2.89    2.95    1.45     324
  1.000    1.35    5.52   .4184    -.14    2.92    5.01    3.96     .87     325
  1.250    1.65    6.36   .3991    -.46    3.59    6.19    4.23     .63     325
  1.500    1.80    7.08   .3866    -.67    4.42    7.32    4.42     .55     324
  1.750    2.18    7.39   .3435   -1.09    5.07    8.09    4.54     .60     326
  2.000    2.60    7.69   .2806   -1.41    5.68    8.80    4.75     .66     326
  2.250    3.08    7.90   .2159   -1.71    6.23    9.35    5.10     .65     326
  2.500    3.72    8.14   .1803   -2.00    6.77    9.93    5.59     .62     326
  2.750    4.40    8.38   .1636   -2.21    7.12   10.49    5.90     .67     326
  3.000    5.03    8.56   .1467   -2.48    7.50   11.11    6.11     .65     326
  3.250    5.70    8.71   .1269   -2.68    8.13   11.80    6.50     .77     323
  3.500    6.33    9.08   .0953   -2.91    8.39   12.39    6.90     .92     323
  3.750    6.93    9.41   .0637   -3.14    8.51   12.97    7.10     .95     323
  4.000    7.50    9.66   .0650   -3.09    8.72   13.42    7.39    1.03     323
  4.250    7.94   10.02   .0727   -3.03    8.98   13.95    7.63    1.04     323
  4.500    8.26   10.21   .0772   -3.07    9.29   14.41    7.75    1.03     323
  4.750    8.66   10.56   .0926   -3.21    9.59   14.94    8.05     .99     323
  5.000    9.14   10.93   .0898   -3.33    9.96   15.55    8.44    1.04     323
  5.250    9.65   11.33   .0924   -3.43   10.40   16.21    8.83     .98     322
  5.500   10.00   11.52   .0917   -3.65   10.89   16.78    9.07     .90     322
  5.750   10.33   11.79   .0864   -3.85   11.30   17.33    9.36     .86     322
  6.000   10.72   12.13   .0833   -4.02   11.59   17.85    9.67     .87     321
  6.250   11.18   12.49   .0893   -4.17   11.87   18.45    9.92     .90     320
  6.500   11.59   12.93   .1129   -4.31   12.08   19.03   10.17     .99     320
  6.750   12.03   13.47   .1193   -4.46   12.46   19.69   10.64    1.05     320
  7.000   12.51   13.77   .1285   -4.80   12.97   20.52   10.75     .84     319
  7.250   12.85   14.02   .1441   -4.95   13.45   21.08   11.03     .88     319
  7.500   13.40   14.54   .1452   -5.12   14.09   21.96   11.52    1.00     318
  7.750   13.92   15.08   .1238   -5.32   14.69   22.72   12.18    1.13     316
  8.000   14.40   15.49   .1077   -5.58   15.13   23.42   12.56    1.23     316
  8.250   14.68   15.61   .1397   -5.66   15.13   23.81   12.32    1.03     316
  8.500   15.11   15.91   .1543   -5.90   15.36   24.41   12.45     .91     316
  8.750   15.48   16.23   .1707   -6.30   15.58   25.00   12.62     .85     316
  9.000   15.95   16.66   .1633   -6.79   15.92   25.74   12.96     .80     316
  9.250   16.58   17.28   .1501   -7.25   16.28   26.64   13.41     .85     315
  9.500   17.06   17.60   .1451   -7.54   16.61   27.26   13.75     .93     314
  9.750   17.55   17.89   .1544   -7.59   16.71   27.73   13.94     .95     314
 10.000   18.00   17.99   .1716   -7.79   16.49   28.11   13.73     .90     313
 10.250   18.56   18.20   .2030   -7.81   16.30   28.57   13.60     .83     312
 10.500   18.90   18.10   .2224   -7.90   16.11   28.76   13.35     .67     309
 10.750   19.41   17.87   .2106   -8.02   15.92   28.88   13.35     .60     309
 11.000   19.85   17.66   .2188   -7.86   15.63   28.89   13.28     .61     307
 11.250   20.63   17.24   .2131   -7.85   15.30   29.01   13.27     .56     306
 11.500   21.28   16.90   .1988   -7.93   14.94   29.07   13.34     .52     306
 11.750   21.85   16.55   .1802   -8.16   14.54   29.12   13.43     .55     304
 12.000   22.28   16.14   .1630   -8.18   14.06   29.07   13.24     .58     304
 12.250   22.71   15.83   .1478   -8.00   13.71   29.04   13.20     .59     303
 12.500   22.91   15.16   .1819   -7.55   13.39   28.75   12.80     .56     302
 12.750   22.60   14.54   .1567   -7.05   13.24   28.21   12.28     .44     302
 13.000   22.32   13.65   .1930   -6.67   12.94   27.57   11.66     .38     301
 13.250   22.28   13.10   .2309   -6.58   12.61   27.19   11.41     .40     299
 13.500   21.93   12.70   .2402   -6.42   12.39   26.64   11.25     .38     299
 13.750   21.50   12.14   .2474   -6.28   12.32   26.08   10.98     .40     297
 14.000   20.90   12.21   .1961   -6.22   12.26   25.66   10.75     .42     293
 14.250   20.71   11.63   .2578   -6.07   11.75   25.07   10.50     .44     291
 14.500   20.46   11.52   .2732   -5.87   11.27   24.59   10.36     .47     291
 14.750   20.19   11.33   .2877   -5.75   10.73   24.09   10.17     .49     291
 15.000   19.79   11.01   .2896   -5.67   10.24   23.53    9.80     .55     290
 15.250   19.27   10.80   .2853   -5.53    9.94   22.97    9.48     .65     289
 15.500   18.66   10.59   .2612   -5.43    9.70   22.33    9.21     .78     285
 15.750   18.08   10.27   .2453   -5.20    9.32   21.59    8.92     .83     281
 16.000   17.38    9.99   .2336   -5.11    9.01   20.79    8.74     .84     278
 16.250   16.71    9.79   .2037   -5.04    8.69   19.99    8.72     .78     272
 16.500   16.12    9.57   .1034   -5.13    8.23   19.13    8.90     .84     249
 16.750   15.14    9.24   .0707   -5.10    8.00   18.12    8.71     .75     234
 17.000   14.22    8.70   .0846   -4.93    7.72   17.15    8.22     .79     226
 17.250   13.22    8.23   .0840   -4.61    7.19   16.01    7.65     .71     221
 17.500   12.18    7.81   .0710   -4.63    6.63   14.86    7.33     .78     213
 17.750   11.13    7.54   .0866   -4.39    5.97   13.74    6.83     .91     208
 18.000   10.18    7.36   .0894   -4.12    5.70   12.76    6.66    1.14     207
 18.250    9.21    7.34   .0971   -3.83    5.57   11.85    6.62    1.41     204
 18.500    8.16    6.98   .0871   -3.68    5.31   10.87    6.23    1.42     192
 18.750    7.34    6.64   .0654   -3.40    4.83    9.92    5.86    1.22     175
 19.000    6.57    6.50   .0660   -3.42    4.38    9.32    5.39     .97     168
 19.250    5.78    6.38  -.0244   -3.43    4.39    8.72    5.39    1.17     164
 19.500    5.24    6.29  -.1372   -3.45    4.31    8.21    5.47    1.35     156
 19.750    4.46    5.86  -.1484   -3.57    3.87    7.47    5.08    1.27     143
 20.000    3.59    5.82  -.0989   -3.24    3.44    6.82    4.73    1.33     132
 20.250    2.69    5.71  -.1149   -3.15    3.31    6.40    4.42    1.49     126
 20.500    1.89    5.86  -.0645   -2.89    3.34    6.17    4.37    1.60     122
 20.750    1.29    6.50  -.1930   -2.79    3.45    6.46    4.64    1.53     105
 21.000     .38    5.83  -.0417   -2.56    2.87    5.78    3.90    1.97      89
 21.250    -.17    5.64  -.0569   -2.74    2.96    5.74    3.87    2.11      82
 21.500    -.40    5.77  -.0956   -2.97    2.97    5.81    4.13    2.19      79
 21.750    -.85    5.73  -.1628   -3.18    3.09    5.99    4.12    2.23      78
 22.000   -1.32    5.92  -.1012   -3.11    2.96    6.12    4.19    2.10      76
 22.250   -1.87    5.93  -.0252   -3.06    2.99    6.15    4.34    2.03      75
 22.500   -2.46    6.10   .0376   -2.98    3.00    6.33    4.57    1.98      71
 22.750   -2.79    6.02   .1785   -2.87    2.96    6.26    4.64    1.96      69
 23.000   -3.54    6.04   .2995   -2.52    2.97    6.36    4.85    1.91      69
 23.250   -3.69    6.54   .2148   -2.42    3.14    6.62    5.28    1.73      69
 23.500   -3.39    7.72   .0094   -2.40    3.52    6.90    6.42    2.61      68
 23.750   -3.45    8.31  -.0552   -2.22    3.51    7.20    6.77    2.78      65
 24.000   -3.33    8.37  -.0650   -2.12    3.66    7.31    6.71    2.64      61
 24.250   -3.42    7.92  -.0143   -2.17    3.76    7.32    6.25    2.15      60
 24.500   -3.66    7.20   .0724   -2.22    3.85    7.30    5.59    1.55      60
 24.750   -4.12    6.61   .1786   -2.15    3.78    7.27    5.12    1.56      59
 25.000   -4.32    6.64   .2022   -2.16    3.49    7.37    4.98    1.64      58
 25.250   -4.42    6.76   .1741   -2.21    3.43    7.51    5.00    1.51      58
 25.500   -4.29    7.13   .1083   -2.40    3.48    7.74    5.14    1.29      55
 25.750   -4.11    7.43   .0857   -2.48    3.62    7.95    5.25    1.18      54
 26.000   -4.11    7.71   .0919   -2.66    3.69    8.25    5.30    1.06      54
 26.250   -4.87    6.78  -.1278   -2.97    3.69    8.42    4.56     .03      52
 26.500   -4.94    7.29  -.1288   -2.72    3.34    8.44    4.90     .21      43
 26.750   -4.95    8.01  -.1685   -2.48    3.32    8.66    5.44     .43      39
 27.000   -5.13    8.59  -.2231   -2.27    3.48    9.00    5.91     .47      37
 27.250   -5.39    9.04  -.1755   -2.36    3.66    9.49    6.16     .46      35
 27.500   -6.95    7.75   .0721   -1.89    3.28    8.86    6.55     .48      26
 27.750   -7.01    8.03   .0759   -1.54    3.09    8.77    6.89     .46      25
 28.000   -7.16    8.18   .0290   -1.72    3.20    9.18    6.76     .38      23
 28.250   -6.86    8.79   .0071   -2.00    3.58    9.52    6.92     .45      17
 28.500   -6.72    9.07  -.0787   -1.86    3.79    9.71    6.95     .51      17
 28.750   -4.49    8.83   .1750   -2.31    3.79    8.34    6.69     .86      14
 29.000   -3.04    7.71   .0967   -2.28    3.94    7.38    5.62     .54      13
 29.250   -3.40    9.04  -.0125   -3.43    3.99    9.22    5.42     .13      10
 29.500   -3.09    9.14  -.0096   -3.40    4.19    9.26    5.43     .25      10
 29.750   -1.32   10.00   .0845   -3.32    4.15    8.95    6.33     .60       8
 30.000    -.62   10.92   .3130   -4.50    3.65    9.71    6.83     .36       7
     T A B L E  I -  2.  W I N D  S T A T I S T I C A L  P A R A M E T E R S   
                                  February 
 Station =   723810     Edwards Air Force Base, California      
    Z    MEAN U   SD  U  R(U,V)  MEAN V   SD  V MEAN WS  SD  WS SKEW WS    NOBS
    KM     M/S     M/S             M/S     M/S     M/S     M/S                 
   .000     .00     .00   .0000     .00     .00     .00     .00     .00       0
   .724    1.90    3.71   .4336     .59    2.59    3.55    3.43    1.64     355
   .750    2.24    4.21   .3518     .57    2.72    4.07    3.73    1.32     376
  1.000    2.69    6.03   .3305     .35    3.69    6.20    4.34     .67     373
  1.250    2.59    6.41   .3262     .26    4.31    6.90    4.33     .47     373
  1.500    2.45    6.72   .3319     .24    4.98    7.45    4.51     .49     376
  1.750    2.63    6.83   .3129     .22    5.49    7.89    4.63     .64     375
  2.000    2.97    7.04   .3016     .07    6.08    8.47    4.85     .66     375
  2.250    3.50    7.28   .3153    -.05    6.62    9.12    5.07     .59     375
  2.500    4.21    7.59   .2918    -.26    7.12    9.85    5.37     .52     375
  2.750    5.04    7.82   .2718    -.52    7.44   10.55    5.54     .48     375
  3.000    5.86    8.11   .2306    -.71    8.02   11.37    5.96     .55     374
  3.250    6.54    8.24   .2142    -.78    8.56   11.96    6.44     .66     374
  3.500    7.20    8.50   .1964    -.81    8.69   12.43    6.74     .72     374
  3.750    7.83    8.79   .1790    -.87    9.08   13.11    7.05     .80     374
  4.000    8.51    9.10   .1600    -.97    9.50   13.89    7.30     .79     374
  4.250    9.07    9.34   .1652    -.91    9.86   14.49    7.55     .78     374
  4.500    9.71    9.54   .1666    -.90   10.23   15.17    7.78     .68     374
  4.750   10.52   10.04   .1677   -1.06   10.89   16.12    8.42     .84     374
  5.000   10.98   10.13   .1827   -1.20   10.99   16.64    8.25     .53     374
  5.250   11.66   10.51   .1749   -1.36   11.37   17.41    8.59     .58     374
  5.500   12.21   10.89   .1884   -1.37   11.92   18.08    9.18     .88     374
  5.750   12.70   11.04   .1892   -1.18   12.42   18.75    9.31     .67     373
  6.000   13.23   11.34   .1972   -1.24   12.84   19.48    9.51     .50     372
  6.250   13.76   11.61   .1986   -1.38   13.44   20.19    9.91     .49     372
  6.500   14.38   12.02   .2155   -1.46   14.04   20.96   10.50     .62     372
  6.750   14.92   12.46   .2307   -1.62   14.57   21.67   11.08     .70     370
  7.000   15.31   12.88   .2131   -1.92   14.99   22.27   11.50     .65     369
  7.250   15.92   13.40   .2013   -2.14   15.67   23.15   12.09     .75     368
  7.500   16.27   13.32   .2278   -2.26   16.09   23.65   12.09     .56     367
  7.750   16.96   13.84   .2219   -2.28   16.38   24.41   12.48     .70     365
  8.000   17.38   14.23   .1873   -2.47   16.83   25.01   12.94     .99     363
  8.250   17.80   14.06   .2082   -2.44   17.02   25.46   12.68     .65     363
  8.500   18.24   14.17   .2104   -2.38   17.19   26.03   12.50     .59     362
  8.750   19.13   14.80   .1604   -2.47   17.82   26.99   13.40     .99     361
  9.000   19.68   14.99   .2064   -2.28   17.97   27.63   13.25     .66     360
  9.250   20.51   15.36   .2221   -2.31   18.11   28.42   13.46     .66     356
  9.500   21.45   15.83   .2203   -2.44   18.29   29.27   13.90     .79     352
  9.750   22.14   15.54   .2467   -2.56   18.50   29.85   13.72     .42     349
 10.000   23.26   15.90   .1948   -2.81   19.14   30.87   14.62     .73     348
 10.250   24.15   15.98   .1855   -2.90   19.02   31.50   14.66     .61     348
 10.500   24.90   16.13   .1862   -2.90   18.82   31.97   14.82     .64     348
 10.750   25.27   16.19   .1651   -3.05   18.75   32.17   15.03     .70     343
 11.000   25.81   16.13   .1687   -2.91   18.67   32.41   15.24     .79     343
 11.250   26.30   15.88   .1863   -2.93   18.36   32.47   15.29     .83     341
 11.500   26.47   15.47   .1942   -2.83   17.97   32.25   15.17     .82     342
 11.750   26.34   14.92   .2139   -2.50   17.13   31.63   14.64     .85     340
 12.000   26.46   14.41   .2018   -2.62   16.38   31.35   14.14     .84     337
 12.250   26.38   13.97   .1798   -2.94   15.73   30.99   13.65     .85     331
 12.500   25.81   13.26   .1725   -3.38   14.67   30.07   12.79     .79     323
 12.750   25.48   12.59   .1547   -3.24   14.07   29.41   12.27     .79     321
 13.000   25.13   11.90   .1559   -3.19   13.43   28.72   11.74     .73     319
 13.250   24.63   11.34   .1607   -2.97   13.03   28.05   11.23     .75     317
 13.500   24.14   10.83   .1672   -2.65   12.68   27.41   10.78     .75     317
 13.750   23.59   10.43   .1767   -2.49   12.27   26.75   10.29     .60     315
 14.000   23.11   10.04   .2126   -2.26   11.87   26.14    9.85     .56     304
 14.250   22.50   10.17   .2186   -1.98   11.25   25.35    9.84     .74     301
 14.500   21.56    9.51   .2286   -1.67   10.77   24.27    9.20     .46     298
 14.750   20.77    9.17   .1999   -1.48   10.25   23.31    8.89     .41     296
 15.000   20.13    8.80   .1588   -1.39    9.98   22.52    8.74     .45     294
 15.250   19.52    8.50   .1770   -1.36    9.60   21.83    8.39     .30     292
 15.500   18.89    8.12   .1591   -1.37    9.21   21.13    7.94     .15     288
 15.750   18.23    7.86   .1627   -1.31    9.00   20.44    7.67     .09     280
 16.000   17.44    7.70   .1875   -1.34    8.77   19.64    7.48     .16     273
 16.250   16.74    7.40   .2042   -1.40    8.63   19.01    7.05     .13     264
 16.500   16.10    7.15   .2018   -1.75    8.40   18.36    6.80     .04     238
 16.750   15.61    6.97   .1956   -1.86    8.22   17.84    6.69     .00     223
 17.000   14.78    6.94   .2032   -1.68    7.87   16.93    6.68     .04     213
 17.250   13.99    6.81   .2147   -1.72    7.45   16.02    6.59     .10     203
 17.500   13.20    6.83   .2110   -1.57    7.14   15.16    6.64     .26     198
 17.750   12.38    6.94   .2053   -1.49    6.84   14.34    6.66     .39     193
 18.000   11.68    6.92   .1758   -1.36    6.56   13.60    6.62     .45     183
 18.250   10.82    6.83   .1671   -1.36    6.05   12.69    6.41     .49     174
 18.500   10.03    7.11   .1078   -1.76    6.09   12.10    6.69     .76     161
 18.750    9.20    7.21   .0942   -1.70    6.06   11.46    6.67     .92     145
 19.000    8.15    7.01   .2035   -1.49    5.65   10.60    6.10     .76     138
 19.250    6.87    7.02   .1714   -1.28    5.34    9.53    5.97     .90     137
 19.500    6.09    6.92   .1053   -1.49    5.54    9.07    5.95    1.02     125
 19.750    5.04    6.52   .1803   -1.18    5.03    8.14    5.30    1.09     120
 20.000    4.41    6.77   .1862   -1.09    4.88    7.82    5.37    1.17     113
 20.250    3.79    6.99   .1794   -1.20    4.74    7.67    5.29    1.33     108
 20.500    3.28    7.29   .1817   -1.06    4.38    7.46    5.30    1.44     102
 20.750    2.65    7.46   .0351    -.86    4.32    7.37    5.23    1.07      85
 21.000    1.99    7.33   .0245    -.88    4.09    7.15    4.85    1.05      82
 21.250     .94    7.84   .0586    -.98    4.04    7.21    5.21    1.25      80
 21.500     .06    7.80   .0703    -.94    3.85    6.95    5.25    1.29      75
 21.750    -.58    7.84   .1477   -1.14    3.63    6.86    5.34    1.30      71
 22.000    -.59    7.85   .1701   -1.25    3.75    6.99    5.29    1.28      66
 22.250    -.83    8.17   .1273   -1.13    3.44    7.08    5.46    1.61      65
 22.500   -1.25    8.52   .1119   -1.25    3.56    7.32    5.82    1.93      61
 22.750   -1.64    8.66   .1042   -1.07    3.29    7.31    5.93    2.37      60
 23.000   -2.40    8.78   .0169    -.97    2.97    7.57    5.88    2.27      58
 23.250   -2.90    8.42  -.0813    -.97    2.94    7.82    5.19    1.24      57
 23.500   -3.16    7.97  -.1896   -1.00    2.97    7.74    4.74     .73      55
 23.750   -3.49    8.21  -.2329   -1.08    2.91    8.03    4.87     .70      52
 24.000   -3.02    8.50  -.3627    -.97    3.06    8.13    4.93     .55      46
 24.250   -2.94    8.81  -.4518    -.78    3.13    8.29    5.16     .47      46
 24.500   -2.46    8.95  -.5054    -.68    3.15    8.29    5.13     .53      45
 24.750   -2.41    9.13  -.4937    -.59    3.17    8.59    4.92     .44      46
 25.000   -2.46    9.44  -.4344    -.58    3.20    8.79    5.19     .40      46
 25.250   -2.57    9.90  -.3433    -.56    3.31    9.00    5.77     .65      46
 25.500   -2.42   10.13  -.2847    -.54    3.32    8.97    6.13     .82      45
 25.750   -2.70   10.89  -.2302    -.68    3.36    9.64    6.51     .73      42
 26.000   -2.81   11.11  -.2215    -.80    3.46    9.95    6.53     .72      42
 26.250   -3.17   11.22  -.2699   -1.00    3.39   10.16    6.54     .62      41
 26.500   -3.01   11.76  -.2681   -1.29    3.63   10.60    6.82     .84      32
 26.750   -3.01   12.31  -.1738   -1.37    3.36   10.93    7.10     .83      26
 27.000    -.49   13.21  -.1231   -1.88    3.43   11.13    7.72     .54      19
 27.250    2.74   12.90  -.3252   -2.65    4.13   11.02    8.32     .44      15
 27.500    6.18    9.37  -.6485   -2.82    3.89    9.25    7.77    1.05      13
 27.750    4.07    7.12  -.6350   -3.01    3.79    7.64    5.41    1.02      12
 28.000    3.38    6.93  -.6401   -3.15    3.92    7.53    4.98    1.46      11
 28.250    3.09    7.10  -.5937   -3.36    4.52    7.95    4.90    1.52      10
 28.500    2.63    7.47  -.6456   -3.43    4.51    7.73    5.51    1.39      10
 28.750    1.72    8.68  -.8460   -3.87    4.26    8.10    6.26    1.14       8
 29.000    3.15    9.86  -.8208   -3.97    4.51    8.89    7.41     .94       7
 29.250    3.97   11.61  -.7218   -3.60    4.74   10.10    8.31     .89       6
 29.500  999.99  999.99 99.9900  999.99  999.99  999.99  999.99  999.99       5
 29.750  999.99  999.99 99.9900  999.99  999.99  999.99  999.99  999.99       5
 30.000  999.99  999.99 99.9900  999.99  999.99  999.99  999.99  999.99       4
