        723810   34.92N  117.90W
     T A B L E  II -  1.  T H E R M O D Y N A M I C  S T A T I S T I C A L  P A R A M E T E R S
                                            January 
 Station =   723810     Edwards Air Force Base, California      
    Z      MEAN P   SD P  SKEWP MEAN T  SD T SKEWT    MEAN D    SD D SKEWD  NOBSP  NOBST  NOBSD
    KM       MB        MB      KELVIN KELVIN            G/M3    G/M3                           
   .000 1021.7680  9.1070   .29 277.99 17.78  -.51 1282.8800 97.6114   .79    332    332    332
   .724  935.0488  5.1780  -.64 280.79  6.05   .29 1157.8800 26.7873   .05    303    303    303
   .750  931.8863  5.1900  -.68 280.62  5.58   .36 1154.6670 24.8053   .00    342    342    342
  1.000  904.0556  5.0140  -.71 281.73  4.12   .04 1115.7240 16.1166   .22    342    342    342
  1.250  877.1015  4.9640  -.75 280.92  4.30   .08 1085.8010 15.7352   .12    342    342    342
  1.500  850.8942  4.9370  -.77 279.92  4.43   .05 1057.2730 15.3035   .16    342    342    342
  1.750  825.3652  5.0060  -.77 278.87  4.50  -.01 1029.5380 14.5171   .18    342    342    342
  2.000  800.4705  5.0630  -.76 277.83  4.51  -.12 1002.3560 13.5374   .23    342    342    342
  2.250  776.2453  5.1430  -.75 276.74  4.54  -.25  975.9749 12.5994   .34    342    342    342
  2.500  752.6550  5.2530  -.74 275.63  4.60  -.36  950.2243 11.9225   .49    342    342    342
  2.750  729.7184  5.3750  -.71 274.44  4.59  -.44  925.3731 11.2211   .62    342    342    342
  3.000  707.3974  5.4900  -.70 273.12  4.55  -.51  901.4792 10.4124   .72    342    342    342
  3.250  685.6255  5.6560  -.67 271.68  4.53  -.56  878.4302  9.7431   .75    341    341    341
  3.500  664.3384  5.7570  -.66 270.21  4.50  -.52  855.8411  9.0737   .73    341    341    341
  3.750  643.6437  5.8730  -.64 268.69  4.53  -.56  833.9499  8.6581   .79    341    341    341
  4.000  623.4636  5.9770  -.62 267.10  4.53  -.59  812.6877  8.2270   .81    341    341    341
  4.250  603.8255  6.0670  -.61 265.55  4.52  -.65  791.7405  7.8611   .80    341    341    341
  4.500  584.6780  6.1460  -.61 263.94  4.53  -.66  771.3501  7.5348   .65    341    341    341
  4.750  566.0578  6.2260  -.61 262.26  4.56  -.67  751.6018  7.1993   .56    341    341    341
  5.000  547.9173  6.2880  -.62 260.55  4.58  -.68  732.3076  6.8803   .52    341    341    341
  5.250  530.2753  6.3610  -.62 258.85  4.61  -.65  713.4318  6.5752   .43    340    340    340
  5.500  513.0821  6.4150  -.62 257.11  4.59  -.66  695.0279  6.3020   .29    340    340    340
  5.750  496.3932  6.4980  -.64 255.35  4.59  -.69  677.0540  5.9861   .17    339    339    339
  6.000  479.9956  6.5690  -.63 253.51  4.62  -.71  659.4320  5.8089   .12    338    338    338
  6.250  464.0388  6.5810  -.64 251.68  4.65  -.73  642.1837  5.6808   .09    338    338    338
  6.500  448.5513  6.5940  -.65 249.91  4.66  -.71  625.1783  5.6314  -.14    337    337    337
  6.750  433.4929  6.6080  -.66 248.11  4.67  -.67  608.5908  5.5983  -.36    337    337    337
  7.000  418.8448  6.6220  -.66 246.24  4.65  -.64  592.4878  5.5523  -.53    337    337    337
  7.250  404.6086  6.6260  -.67 244.43  4.61  -.63  576.6148  5.5555  -.81    337    337    337
  7.500  390.7086  6.6650  -.65 242.55  4.55  -.56  561.1306  5.5609  -.96    337    337    337
  7.750  377.1397  6.6240  -.66 240.68  4.43  -.47  545.8758  5.5921  -.98    335    335    335
  8.000  363.9549  6.5660  -.66 238.78  4.38  -.40  530.9719  5.7544 -1.00    335    335    335
  8.250  351.1632  6.4960  -.66 236.93  4.29  -.31  516.3362  6.0370 -1.09    334    334    334
  8.500  338.7169  6.4470  -.64 235.10  4.20  -.14  501.9232  6.3491 -1.22    332    332    332
  8.750  326.6809  6.3800  -.63 233.32  4.03   .04  487.7764  6.7181 -1.36    330    330    330
  9.000  314.9758  6.3020  -.60 231.53  3.97   .18  473.9391  7.2648 -1.48    330    330    330
  9.250  303.6471  6.2070  -.57 229.78  4.01   .39  460.4088  7.8280 -1.59    329    329    329
  9.500  292.5860  6.1210  -.52 228.09  4.06   .53  446.9216  8.4468 -1.59    329    329    329
  9.750  281.7679  5.9500  -.48 226.41  4.08   .61  433.6205  8.9915 -1.52    327    327    327
 10.000  271.3275  5.7860  -.43 224.84  4.25   .73  420.4872  9.5846 -1.47    327    327    327
 10.250  261.2232  5.6280  -.39 223.30  4.38   .82  407.6453 10.0608 -1.44    327    327    327
 10.500  251.4552  5.4740  -.34 221.89  4.50   .85  394.9316 10.5485 -1.34    326    326    326
 10.750  242.0194  5.3090  -.29 220.76  4.90   .94  382.1098 11.2213 -1.18    325    325    325
 11.000  232.8354  5.1020  -.23 219.67  5.24   .92  369.4468 11.7116 -1.02    325    325    325
 11.250  223.9702  4.8840  -.18 218.88  5.57   .85  356.7289 12.1378  -.82    325    325    325
 11.500  215.4290  4.6860  -.12 218.16  5.85   .69  344.2877 12.3788  -.66    324    324    324
 11.750  207.1895  4.4850  -.06 217.60  6.08   .51  331.9929 12.4147  -.51    324    324    324
 12.000  199.2483  4.3210   .00 217.31  6.24   .25  319.7160 12.2506  -.32    319    319    319
 12.250  191.6038  4.1360   .06 217.18  6.17   .02  307.6270 11.7094  -.16    318    318    318
 12.500  184.2387  3.9400   .11 217.14  5.87  -.17  295.8349 10.9737  -.06    318    318    318
 12.750  177.1830  3.7420   .16 217.08  5.44  -.26  284.5473 10.0595   .00    317    317    317
 13.000  170.3772  3.5730   .20 216.91  4.94  -.24  273.8032  9.1734  -.04    316    316    316
 13.250  163.8130  3.4110   .23 216.67  4.49  -.16  263.5364  8.4597  -.05    316    316    316
 13.500  157.4857  3.2450   .27 216.32  4.23  -.08  253.7470  7.9646  -.06    315    315    315
 13.750  151.4240  3.1030   .30 215.90  3.93  -.02  244.4454  7.5036  -.05    313    313    313
 14.000  145.5651  2.9570   .32 215.38  3.67   .07  235.5474  7.0842  -.05    312    312    312
 14.250  139.9190  2.8150   .34 214.78  3.45   .17  227.0370  6.7739   .02    311    311    311
 14.500  134.4720  2.6620   .35 214.18  3.37   .18  218.8100  6.5723   .10    311    311    311
 14.750  129.2223  2.5230   .36 213.57  3.41   .16  210.8858  6.4472   .14    310    310    310
 15.000  124.1812  2.3840   .37 212.91  3.50   .17  203.2841  6.3190   .17    309    309    309
 15.250  119.3295  2.2460   .37 212.27  3.59   .18  195.9347  6.1720   .20    308    308    308
 15.500  114.6413  2.1210   .37 211.63  3.68   .09  188.8111  6.0500   .25    305    305    305
 15.750  110.1148  1.9770   .37 211.03  3.78  -.03  181.8836  5.8677   .31    304    304    304
 16.000  105.7626  1.8390   .37 210.39  3.90  -.06  175.2202  5.7127   .32    302    302    302
 16.250  101.5993  1.7090   .38 209.77  3.98  -.09  168.8191  5.5080   .35    299    299    299
 16.500   97.5646  1.6480   .37 209.46  4.04  -.20  162.3762  5.3993   .43    277    277    277
 16.750   93.6368  1.4900   .32 209.20  4.08  -.23  156.0257  5.0335   .44    272    272    272
 17.000   89.9004  1.3800   .30 209.01  4.15  -.23  149.9346  4.8059   .43    269    269    269
 17.250   86.3123  1.2900   .30 208.98  4.18  -.26  143.9716  4.5914   .46    261    261    261
 17.500   82.8772  1.1960   .27 208.99  4.23  -.22  138.2295  4.3684   .42    254    254    254
 17.750   79.5705  1.1250   .25 208.84  4.17  -.22  132.8286  4.0859   .41    241    241    241
 18.000   76.4135  1.0440   .23 208.83  4.17  -.30  127.5456  3.8284   .53    237    237    237
 18.250   73.3382   .9670   .21 208.75  3.97  -.43  122.4539  3.4624   .61    228    228    228
 18.500   70.4412   .9000   .14 208.85  3.88  -.44  117.5570  3.2137   .62    221    221    221
 18.750   67.6200   .8470   .11 209.09  3.81  -.47  112.7073  3.0026   .63    205    205    205
 19.000   64.9482   .7880   .10 209.36  3.79  -.48  108.1307  2.7917   .58    199    199    199
 19.250   62.4138   .7280   .13 209.61  3.64  -.35  103.7735  2.5293   .51    189    189    189
 19.500   59.9547   .6780   .08 209.91  3.52  -.14   99.5337  2.2954   .38    181    181    181
 19.750   57.6047   .6420   .01 210.37  3.38  -.03   95.4169  2.1060   .30    172    172    172
 20.000   55.3458   .5860  -.07 210.67  3.28  -.05   91.5484  1.9102   .29    155    155    155
 20.250   53.1844   .5650  -.06 211.00  3.19  -.05   87.8122  1.7188   .35    147    147    147
 20.500   51.0943   .5310  -.08 211.35  3.09  -.10   84.2443  1.5699   .43    140    140    140
 20.750   49.0984   .5020  -.20 211.51  3.04  -.05   80.8836  1.4557   .43    128    128    128
 21.000   47.1661   .4700  -.21 211.71  2.82  -.21   77.6169  1.3462   .48    118    118    118
 21.250   45.3416   .4410  -.36 212.11  2.81  -.22   74.4770  1.2448   .43    113    113    113
 21.500   43.5622   .4280  -.30 212.50  2.89  -.21   71.4342  1.1593   .25    111    111    111
 21.750   41.8519   .4060  -.53 212.79  2.90  -.42   68.5343  1.0872   .25    108    108    108
 22.000   40.2298   .4040  -.52 213.24  2.61  -.08   65.7346   .9469   .14    104    104    104
 22.250   38.6515   .3820  -.48 213.51  2.56  -.07   63.0806   .8827   .12    103    103    103
 22.500   37.1583   .3640  -.74 213.88  2.60  -.08   60.5354   .8103   .07     96     96     96
 22.750   35.7245   .3500  -.81 214.14  2.59   .00   58.1043   .7483  -.03     94     94     94
 23.000   34.3215   .3410  -.83 214.45  2.58   .10   55.7731   .7027  -.09     93     93     93
 23.250   33.0033   .3330  -.93 214.73  2.58   .07   53.5396   .6678  -.01     91     91     91
 23.500   31.7115   .3240  -.86 215.11  2.62   .07   51.3805   .6557   .02     87     87     87
 23.750   30.5058   .3180  -.74 215.41  2.59   .04   49.3163   .6050  -.01     86     86     86
 24.000   29.3012   .2990  -.95 215.59  2.67   .00   47.3370   .6067   .16     81     81     81
 24.250   28.1775   .2880 -1.07 215.90  2.72   .01   45.4537   .5759   .32     80     80     80
 24.500   27.0950   .2920  -.76 216.13  2.75   .16   43.6625   .5256   .23     80     80     80
 24.750   26.0367   .2700 -1.04 216.38  2.60   .07   41.9025   .4933   .11     79     79     79
 25.000   25.0197   .2590 -1.07 216.58  2.67   .14   40.2592   .4800   .04     76     76     76
 25.250   24.0667   .2670  -.82 216.84  2.61   .06   38.6653   .4422  -.14     75     75     75
 25.500   23.1528   .2530 -1.00 217.24  2.63  -.13   37.1472   .4341  -.20     72     72     72
 25.750   22.2528   .2560  -.97 217.63  2.65  -.01   35.6583   .4202  -.15     72     72     72
 26.000   21.4250   .2560 -1.01 217.91  2.70   .15   34.2444   .4083  -.09     72     72     72
 26.250   20.5944   .2490  -.92 218.07  2.71   .00   32.9169   .3753  -.11     71     71     71
 26.500   19.8359   .2350 -1.12 218.31  2.47  -.03   31.6563   .3236  -.36     64     64     64
 26.750   19.0774   .2410  -.78 218.50  2.47  -.09   30.4274   .3063  -.49     62     62     62
 27.000   18.3567   .2370  -.74 218.76  2.39  -.22   29.2217   .3136  -.65     60     60     60
 27.250   17.6702   .2380  -.89 219.18  2.31  -.40   28.0737   .3143  -.72     57     57     57
 27.500   16.9978   .2320 -1.16 219.17  2.48  -.46   27.0133   .3057  -.93     45     45     45
 27.750   16.3786   .2150 -1.03 219.50  2.66  -.51   25.9857   .2901  -.91     42     42     42
 28.000   15.7381   .2050  -.96 219.64  2.81  -.46   24.9714   .2857  -.90     42     42     42
 28.250   15.1650   .2080 -1.17 219.79  3.06  -.52   24.0375   .2993  -.98     40     40     40
 28.500   14.5865   .1970 -1.02 219.79  3.31  -.56   23.1216   .3172 -1.15     37     37     37
 28.750   14.0333   .2070  -.66 220.10  3.56  -.70   22.2111   .3232  -.75     36     36     36
 29.000   13.5118   .1950  -.77 220.45  3.90  -.84   21.3529   .3440  -.67     34     34     34
 29.250   12.9906   .1940  -.59 220.53  4.25  -.81   20.5344   .3615  -.79     32     32     32
 29.500   12.5000   .2040  -.74 220.72  4.84  -.76   19.7321   .3991  -.55     28     28     28
 29.750   12.0250   .2290  -.26 220.50  5.39  -.58   18.9833   .4219  -.61     24     24     24
 30.000   11.5478   .2000  -.02 220.77  5.83  -.66   18.2261   .4361  -.12     23     23     23
     T A B L E  II -  2.  T H E R M O D Y N A M I C  S T A T I S T I C A L  P A R A M E T E R S
                                           February 
 Station =   723810     Edwards Air Force Base, California      
    Z      MEAN P   SD P  SKEWP MEAN T  SD T SKEWT    MEAN D    SD D SKEWD  NOBSP  NOBST  NOBSD
    KM       MB        MB      KELVIN KELVIN            G/M3    G/M3                           
   .000 1018.5920  7.8390   .09 281.94 13.79  -.06 1257.6860 71.3772   .46    391    391    391
   .724  933.5168  5.3210  -.51 282.09  5.76   .75 1150.1320 24.3396  -.27    375    375    375
   .750  930.3050  5.5410  -.61 281.79  5.30   .59 1147.4600 22.8896  -.13    397    397    397
  1.000  902.6793  5.5120  -.64 281.86  4.48   .38 1113.3310 17.1382  -.11    401    401    401
  1.250  875.7414  5.4700  -.64 280.60  4.56   .27 1085.2000 16.2446  -.03    401    401    401
  1.500  849.5276  5.4830  -.63 279.10  4.64   .15 1058.5720 15.6316   .08    402    402    402
  1.750  823.9067  5.5350  -.61 277.66  4.65   .08 1032.1210 14.9130   .15    402    402    402
  2.000  798.9500  5.5990  -.58 276.31  4.67  -.01 1005.9300 14.0786   .25    402    402    402
  2.250  774.6465  5.6870  -.55 275.09  4.68  -.14  979.7975 12.9818   .38    402    402    402
  2.500  750.9612  5.7960  -.52 273.98  4.62  -.32  953.7908 11.8830   .56    402    402    402
  2.750  727.9443  5.9160  -.49 272.77  4.59  -.52  928.7766 10.9666   .75    402    402    402
  3.000  705.5377  6.0420  -.48 271.44  4.60  -.71  904.6526 10.3082   .96    401    401    401
  3.250  683.6863  6.1920  -.47 269.99  4.64  -.76  881.4312  9.8863   .97    401    401    401
  3.500  662.3499  6.3080  -.47 268.52  4.69  -.82  858.6713  9.4258  1.03    401    401    401
  3.750  641.5788  6.4110  -.47 266.99  4.71  -.86  836.5434  8.9560  1.04    401    401    401
  4.000  621.3499  6.5060  -.48 265.40  4.68  -.88  815.0910  8.3767   .99    401    401    401
  4.250  601.6574  6.6000  -.49 263.80  4.66  -.91  794.0938  7.8668   .97    401    401    401
  4.500  582.4681  6.6760  -.52 262.15  4.68  -.94  773.6459  7.5888   .93    401    401    401
  4.750  563.7978  6.7600  -.53 260.49  4.74  -.94  753.6599  7.4284   .77    401    401    401
  5.000  545.6209  6.8220  -.54 258.82  4.75  -.93  734.0950  7.1434   .59    401    401    401
  5.250  527.9424  6.8780  -.56 257.20  4.75  -.94  714.8312  6.8213   .47    401    401    401
  5.500  510.7207  6.9250  -.58 255.58  4.76  -.95  695.9476  6.6440   .40    401    401    401
  5.750  493.9690  7.0180  -.60 253.88  4.76  -.94  677.6168  6.3526   .32    400    400    400
  6.000  477.5336  7.0420  -.61 252.12  4.76  -.92  659.6752  6.0994   .19    399    399    399
  6.250  461.5872  7.0530  -.63 250.35  4.71  -.79  642.1754  5.7689  -.11    399    399    399
  6.500  446.0870  7.0680  -.64 248.56  4.71  -.71  625.1158  5.5769  -.20    399    399    399
  6.750  431.0323  7.0700  -.65 246.72  4.70  -.67  608.5208  5.3694  -.25    399    399    399
  7.000  416.3915  7.0680  -.66 244.89  4.67  -.63  592.2599  5.1544  -.30    399    399    399
  7.250  402.1491  7.0840  -.67 243.06  4.61  -.55  576.3293  5.0221  -.36    399    399    399
  7.500  388.1965  7.1070  -.64 241.19  4.54  -.47  560.6514  5.0228  -.46    397    397    397
  7.750  374.6154  7.0460  -.64 239.33  4.40  -.44  545.2519  5.1003  -.70    397    397    397
  8.000  361.4212  6.9700  -.64 237.44  4.27  -.41  530.2222  5.2889  -.91    396    396    396
  8.250  348.6359  6.9070  -.63 235.62  4.09  -.34  515.4429  5.4999 -1.21    396    396    396
  8.500  336.2381  6.8310  -.62 233.79  3.94  -.28  500.9965  5.8694 -1.41    396    396    396
  8.750  324.2139  6.7480  -.60 231.99  3.78  -.23  486.8410  6.2883 -1.48    395    395    395
  9.000  312.5221  6.6440  -.57 230.24  3.61  -.18  472.8596  6.8671 -1.50    394    394    394
  9.250  301.2219  6.5330  -.56 228.55  3.43  -.15  459.1455  7.5175 -1.43    393    393    393
  9.500  290.1195  6.3990  -.51 226.87  3.27  -.22  445.5105  8.3208 -1.36    390    390    390
  9.750  279.4138  6.1820  -.50 225.33  3.24  -.22  432.0246  8.9497 -1.30    390    390    390
 10.000  269.0000  5.9810  -.47 223.87  3.28  -.05  418.6588  9.7576 -1.23    386    386    386
 10.250  258.9929  5.7860  -.45 222.55  3.48   .23  405.5139 10.5681 -1.14    382    382    382
 10.500  249.2679  5.5990  -.41 221.33  3.78   .50  392.4768 11.2897 -1.03    380    380    380
 10.750  239.8413  5.3930  -.36 220.23  4.14   .72  379.5563 11.8912  -.92    378    378    378
 11.000  230.7214  5.1300  -.33 219.34  4.55   .79  366.6521 12.4788  -.78    378    378    378
 11.250  221.9317  4.8660  -.30 218.70  4.95   .76  353.7722 12.8457  -.62    378    378    378
 11.500  213.4404  4.6120  -.27 218.13  5.23   .54  341.1652 12.9613  -.47    376    376    376
 11.750  205.2763  4.3570  -.23 217.84  5.48   .29  328.5712 12.8679  -.29    375    375    375
 12.000  197.4266  4.1190  -.20 217.73  5.66   .08  316.1750 12.5204  -.12    376    376    376
 12.250  189.8234  3.8890  -.16 217.81  5.55  -.14  303.8772 11.8077   .02    372    372    372
 12.500  182.5678  3.6730  -.15 217.84  5.32  -.30  292.1984 11.0012   .13    369    369    369
 12.750  175.5721  3.4710  -.14 217.92  5.06  -.48  280.8746 10.1809   .24    366    366    366
 13.000  168.8294  3.2850  -.11 217.87  4.76  -.72  270.1321  9.3806   .35    364    364    364
 13.250  162.3544  3.1130  -.09 217.70  4.38  -.82  259.9508  8.5210   .34    362    362    362
 13.500  156.1280  2.9530  -.08 217.38  4.05  -.86  250.3398  7.8177   .27    357    357    357
 13.750  150.1377  2.7870  -.11 217.00  3.70  -.71  241.1386  7.1603   .12    350    350    350
 14.000  144.3195  2.6520  -.08 216.60  3.38  -.41  232.2093  6.6182  -.02    343    343    343
 14.250  138.7205  2.4940  -.09 216.04  3.24  -.22  223.7660  6.2558  -.10    341    341    341
 14.500  133.3599  2.3570  -.08 215.51  3.22  -.04  215.6578  6.0260  -.14    339    339    339
 14.750  128.1835  2.2290  -.07 214.95  3.26   .01  207.8345  5.8348  -.10    333    333    333
 15.000  123.1939  2.1030  -.07 214.41  3.35   .02  200.2521  5.6931  -.07    328    328    328
 15.250  118.4201  1.9850  -.07 213.86  3.41   .04  192.9827  5.4944  -.07    324    324    324
 15.500  113.7931  1.8690  -.07 213.35  3.52   .04  185.8994  5.3289  -.07    320    320    320
 15.750  109.3575  1.7600  -.07 212.82  3.64   .07  179.0947  5.1829  -.08    318    318    318
 16.000  105.0839  1.6540  -.05 212.36  3.70   .15  172.4719  4.9827  -.09    317    317    317
 16.250  100.9801  1.5430  -.03 211.89  3.74   .21  166.0929  4.7498  -.05    312    312    312
 16.500   97.0151  1.4780  -.02 211.57  3.76   .17  159.8199  4.5625   .00    292    292    292
 16.750   93.2064  1.3920  -.05 211.25  3.82   .19  153.7759  4.3535  -.01    282    282    282
 17.000   89.5494  1.2970  -.11 210.92  3.87   .23  147.9756  4.1150  -.05    271    271    271
 17.250   86.0331  1.2280  -.14 210.61  3.89   .23  142.3716  3.9233  -.02    257    257    257
 17.500   82.6296  1.1650  -.14 210.54  3.99   .22  136.7908  3.7783   .01    250    250    250
 17.750   79.3475  1.1200  -.18 210.52  4.00   .19  131.3723  3.5765   .04    238    238    238
 18.000   76.2090  1.0630  -.20 210.57  3.97   .03  126.1308  3.3549   .17    221    221    221
 18.250   73.2094   .9910  -.14 210.63  3.76   .12  121.1324  3.0341   .33    213    213    213
 18.500   70.3520   .9380  -.22 210.67  3.59   .13  116.3779  2.7765   .33    204    204    204
 18.750   67.5584   .8930  -.26 210.78  3.40   .19  111.6934  2.5524   .31    197    197    197
 19.000   64.8941   .8620  -.37 210.81  3.27   .26  107.2739  2.3730   .33    188    188    188
 19.250   62.3408   .8160  -.35 210.92  3.19   .23  102.9972  2.1831   .39    179    179    179
 19.500   59.9024   .7740  -.47 211.23  3.12   .14   98.8255  2.0073   .46    165    165    165
 19.750   57.5474   .7200  -.57 211.52  3.19   .15   94.7974  1.8787   .42    156    156    156
