      74794      28.47N   80.57W
  T A B L E  III -   1.  M O I S T U R E  R E L A T E D  S T A T I S T I C A L  P A R A M E T E R S
                                   January
 Station =   74794      Cape Canaveral Air Force Station
      Z VAPOR P   SD VP SKEW VP      TV      TV SKEW TV DEWPT T  SD DPT SKW DPT NOBS TP NOBS TV   
           MEAN                    MEAN      SD            MEAN                                   
     KM      MB      MB          KELVIN  KELVIN          KELVIN  KELVIN                           
  0.000  16.000   6.000    0.00  291.00    6.00    0.00  290.00    7.00    0.00     100     100
  0.004  15.716   6.197    0.08  290.96    6.72   -0.34  285.67    6.79   -0.58    1108    1108
  0.500  13.605   5.808   -0.06  289.94    5.41   -0.65  283.13    7.81   -0.92    1108    1108
  1.000  10.803   5.207   -0.21  286.95    4.83   -0.58  278.95    9.73   -1.18    1108    1108
  1.500   8.059   4.667    0.02  284.67    4.34   -0.48  273.83   11.22   -0.93    1108    1108
  2.000   5.621   3.657    0.42  282.85    4.08   -0.24  268.76   10.64   -0.51    1108    1108
  2.500   4.190   2.916    0.73  280.90    3.82   -0.10  264.84   10.19   -0.30    1108    1108
  3.000   3.275   2.297    0.90  278.52    3.48   -0.11  261.89    9.49   -0.17    1108    1108
  3.500   2.574   1.831    1.05  275.76    3.22   -0.09  258.95    9.15   -0.16    1107    1107
  4.000   2.029   1.516    1.13  272.84    3.08    0.01  255.89    9.16   -0.08    1107    1107
  4.500   1.539   1.181    1.34  269.89    3.01   -0.02  252.61    8.88   -0.04    1108    1108
  5.000   1.175   0.903    1.47  266.85    3.03    0.08  249.58    8.55   -0.07    1108    1108
  5.500   0.922   0.708    1.43  263.65    3.13    0.17  246.86    8.40   -0.08    1108    1108
  6.000   0.710   0.525    1.40  260.34    3.29    0.31  244.19    7.93   -0.09    1108    1108
  6.500   0.559   0.408    1.29  256.94    3.38    0.47  241.65    7.81   -0.12    1108    1108
  7.000   0.445   0.320    1.12  253.47    3.46    0.54  239.19    7.90   -0.27    1108    1108
  7.500   0.339   0.234    1.06  249.91    3.48    0.57  236.59    7.50   -0.32    1108    1108
  8.000   0.254   0.171    0.97  246.27    3.51    0.56  233.79    7.25   -0.37    1108    1108
  8.500   0.180   0.115    0.84  242.59    3.55    0.58  230.59    6.96   -0.55    1108    1108
  9.000   0.123   0.076    0.77  238.86    3.47    0.65  227.25    6.57   -0.69    1108    1108
  9.500   0.082   0.048    0.73  235.09    3.41    0.64  223.83    6.01   -0.75    1108    1108
 10.000   0.054   0.030    0.80  231.35    3.39    0.59  220.46    5.33   -0.73    1108    1108
 10.500   0.036   0.019    1.15  227.74    3.38    0.64  217.07    4.79   -0.65    1107    1107
 11.000   0.023   0.012    1.07  224.31    3.41    0.67  213.81    4.45   -0.79    1105    1105
 11.500   0.016   0.008    1.05  221.25    3.44    0.64  210.78    4.09   -0.85    1100    1100
 12.000   0.010   0.006  999.90  218.60    3.60    0.41  208.22    4.14   -0.95     961     961
 12.500   0.006   0.005  999.90  216.36    3.75    0.08  206.04    4.80   -1.15     716     716
 13.000   0.003   0.004  999.90  214.35    3.52   -0.20  203.78    5.21   -1.06     592     592
 13.500   0.001   0.003  999.90  212.56    3.15   -0.34  201.92    5.72   -0.83     283     283
 14.000   0.001   0.002  999.90  210.76    2.86   -0.32  200.99    5.24   -0.81     142     142
 14.500   0.000   0.000  999.90  208.77    2.66   -0.23  198.64    4.67   -0.80      22      22
 15.000   0.000   0.000  999.90  206.63    2.71   -0.38  999.90  999.90  999.90       0       0
 15.500   0.000   0.000  999.90  204.67    2.90   -0.52  999.90  999.90  999.90       0       0
 16.000   0.000   0.000  999.90  202.88    3.03   -0.63  999.90  999.90  999.90       0       0
 16.500   0.000   0.000  999.90  201.39    3.21   -0.55  999.90  999.90  999.90       0       0
 17.000   0.000   0.000  999.90  200.40    3.45   -0.40  999.90  999.90  999.90       0       0
 17.500   0.000   0.000  999.90  200.00    3.47   -0.25  999.90  999.90  999.90       0       0
 18.000   0.000   0.000  999.90  200.20    3.52   -0.19  999.90  999.90  999.90       0       0
 18.500   0.000   0.000  999.90  200.94    3.38   -0.13  999.90  999.90  999.90       0       0
 19.000   0.000   0.000  999.90  201.98    3.32   -0.22  999.90  999.90  999.90       0       0
 19.500   0.000   0.000  999.90  203.34    3.20   -0.28  999.90  999.90  999.90       0       0
 20.000   0.000   0.000  999.90  204.83    3.11   -0.22  999.90  999.90  999.90       0       0
 20.500   0.000   0.000  999.90  206.28    3.00    0.01  999.90  999.90  999.90       0       0
 21.000   0.000   0.000  999.90  207.72    2.94    0.04  999.90  999.90  999.90       0       0
 21.500   0.000   0.000  999.90  208.96    2.85    0.09  999.90  999.90  999.90       0       0
 22.000   0.000   0.000  999.90  210.18    2.85    0.14  999.90  999.90  999.90       0       0
 22.500   0.000   0.000  999.90  211.37    2.87    0.16  999.90  999.90  999.90       0       0
 23.000   0.000   0.000  999.90  212.36    2.83    0.09  999.90  999.90  999.90       0       0
 23.500   0.000   0.000  999.90  213.27    2.88    0.09  999.90  999.90  999.90       0       0
 24.000   0.000   0.000  999.90  214.19    2.85    0.09  999.90  999.90  999.90       0       0
 24.500   0.000   0.000  999.90  215.11    2.87    0.13  999.90  999.90  999.90       0       0
 25.000   0.000   0.000  999.90  215.96    2.96    0.16  999.90  999.90  999.90       0       0
 25.500   0.000   0.000  999.90  217.00    3.12    0.21  999.90  999.90  999.90       0       0
 26.000   0.000   0.000  999.90  217.97    3.27    0.45  999.90  999.90  999.90       0       0
 26.500   0.000   0.000  999.90  218.98    3.50    0.48  999.90  999.90  999.90       0       0
 27.000   0.000   0.000  999.90  219.83    3.67    0.54  999.90  999.90  999.90       0       0
 27.500   0.000   0.000  999.90  220.56    3.70    0.47  999.90  999.90  999.90       0       0
 28.000   0.000   0.000  999.90  221.58    3.78    0.55  999.90  999.90  999.90       0       0
 28.500   0.000   0.000  999.90  222.53    3.89    0.50  999.90  999.90  999.90       0       0
 29.000   0.000   0.000  999.90  223.43    4.01    0.43  999.90  999.90  999.90       0       0
 29.500   0.000   0.000  999.90  224.46    4.03    0.40  999.90  999.90  999.90       0       0
 30.000   0.000   0.000  999.90  225.21    4.06    0.23  999.90  999.90  999.90       0       0
  T A B L E  III -   2.  M O I S T U R E  R E L A T E D  S T A T I S T I C A L  P A R A M E T E R S
                                  February
 Station =   74794      Cape Canaveral Air Force Station
      Z VAPOR P   SD VP SKEW VP      TV      TV SKEW TV DEWPT T  SD DPT SKW DPT NOBS TP NOBS TV   
           MEAN                    MEAN      SD            MEAN                                   
     KM      MB      MB          KELVIN  KELVIN          KELVIN  KELVIN                           
  0.000  16.000   6.000    0.00  291.00    6.00    0.00  290.00    7.00    0.00     100     100
  0.004  15.997   6.033    0.05  291.83    6.43   -0.32  286.04    6.57   -0.72    1248    1248
  0.500  13.659   5.731   -0.05  290.30    5.48   -0.70  283.23    7.74   -1.01    1248    1248
  1.000  10.861   5.097   -0.20  287.23    4.93   -0.62  279.09    9.76   -1.46    1248    1248
  1.500   8.041   4.633   -0.00  284.85    4.30   -0.46  273.75   11.40   -1.00    1248    1248
  2.000   5.704   3.628    0.34  282.81    4.00   -0.23  268.95   10.79   -0.63    1248    1248
  2.500   4.294   2.908    0.54  280.67    3.70   -0.06  265.00   10.75   -0.59    1248    1248
  3.000   3.297   2.282    0.73  278.24    3.41   -0.08  261.73   10.20   -0.52    1248    1248
  3.500   2.530   1.743    0.90  275.53    3.19   -0.01  258.62    9.60   -0.52    1248    1248
  4.000   1.980   1.380    0.98  272.57    3.09    0.00  255.69    9.26   -0.48    1248    1248
  4.500   1.570   1.127    1.10  269.50    3.10   -0.01  252.90    9.09   -0.42    1248    1248
  5.000   1.213   0.890    1.22  266.41    3.14    0.06  249.87    8.97   -0.43    1248    1248
  5.500   0.933   0.702    1.35  263.26    3.24    0.15  246.85    8.94   -0.51    1248    1248
  6.000   0.711   0.534    1.54  260.01    3.38    0.23  244.02    8.52   -0.52    1247    1247
  6.500   0.551   0.406    1.42  256.61    3.57    0.29  241.37    8.27   -0.53    1247    1247
  7.000   0.432   0.319    1.32  253.06    3.67    0.35  238.75    8.27   -0.57    1248    1248
  7.500   0.325   0.228    1.17  249.47    3.69    0.40  236.09    7.77   -0.58    1248    1248
  8.000   0.244   0.167    1.11  245.86    3.71    0.38  233.43    7.26   -0.47    1248    1248
  8.500   0.173   0.117    1.16  242.22    3.72    0.35  230.17    7.08   -0.58    1248    1248
  9.000   0.118   0.077    1.06  238.54    3.77    0.28  226.63    6.86   -0.68    1248    1248
  9.500   0.079   0.050    1.03  234.82    3.80    0.24  223.19    6.35   -0.66    1248    1248
 10.000   0.051   0.032    1.02  231.11    3.78    0.23  219.57    6.08   -0.75    1248    1248
 10.500   0.033   0.020    1.00  227.57    3.82    0.26  216.13    5.65   -0.89    1247    1247
 11.000   0.021   0.012    0.91  224.26    3.94    0.28  212.72    5.24   -0.88    1245    1245
 11.500   0.014   0.008    0.68  221.48    4.06    0.25  209.73    4.97   -0.99    1220    1220
 12.000   0.009   0.006  999.90  219.09    4.09    0.12  207.43    5.00   -1.12    1060    1060
 12.500   0.006   0.005  999.90  217.03    3.91   -0.08  205.21    5.39   -0.99     858     858
 13.000   0.004   0.004  999.90  215.18    3.44   -0.34  203.15    5.59   -0.98     752     752
 13.500   0.002   0.003  999.90  213.22    3.13   -0.42  201.40    5.73   -0.68     405     405
 14.000   0.001   0.002  999.90  211.05    2.93   -0.39  199.26    5.86   -0.39     195     195
 14.500   0.000   0.000  999.90  208.97    2.78   -0.31  197.43    4.83   -0.27      29      29
 15.000   0.000   0.000  999.90  206.88    2.87   -0.39  999.90  999.90  999.90       0       0
 15.500   0.000   0.000  999.90  204.84    3.01   -0.41  999.90  999.90  999.90       0       0
 16.000   0.000   0.000  999.90  203.04    3.20   -0.36  999.90  999.90  999.90       0       0
 16.500   0.000   0.000  999.90  201.54    3.39   -0.38  999.90  999.90  999.90       0       0
 17.000   0.000   0.000  999.90  200.55    3.52   -0.35  999.90  999.90  999.90       0       0
 17.500   0.000   0.000  999.90  200.08    3.60   -0.23  999.90  999.90  999.90       0       0
 18.000   0.000   0.000  999.90  200.17    3.74   -0.06  999.90  999.90  999.90       0       0
 18.500   0.000   0.000  999.90  200.72    3.66    0.05  999.90  999.90  999.90       0       0
 19.000   0.000   0.000  999.90  201.82    3.53    0.05  999.90  999.90  999.90       0       0
 19.500   0.000   0.000  999.90  203.24    3.40    0.15  999.90  999.90  999.90       0       0
 20.000   0.000   0.000  999.90  204.73    3.21    0.12  999.90  999.90  999.90       0       0
 20.500   0.000   0.000  999.90  206.23    3.04    0.12  999.90  999.90  999.90       0       0
 21.000   0.000   0.000  999.90  207.70    3.02    0.08  999.90  999.90  999.90       0       0
 21.500   0.000   0.000  999.90  209.09    2.93    0.14  999.90  999.90  999.90       0       0
 22.000   0.000   0.000  999.90  210.40    2.85    0.08  999.90  999.90  999.90       0       0
 22.500   0.000   0.000  999.90  211.60    2.85    0.14  999.90  999.90  999.90       0       0
 23.000   0.000   0.000  999.90  212.48    2.82    0.17  999.90  999.90  999.90       0       0
 23.500   0.000   0.000  999.90  213.38    2.81    0.17  999.90  999.90  999.90       0       0
 24.000   0.000   0.000  999.90  214.27    2.75    0.19  999.90  999.90  999.90       0       0
 24.500   0.000   0.000  999.90  215.14    2.82    0.31  999.90  999.90  999.90       0       0
 25.000   0.000   0.000  999.90  216.03    2.83    0.34  999.90  999.90  999.90       0       0
 25.500   0.000   0.000  999.90  216.98    2.88    0.58  999.90  999.90  999.90       0       0
 26.000   0.000   0.000  999.90  217.90    2.96    0.72  999.90  999.90  999.90       0       0
 26.500   0.000   0.000  999.90  218.89    3.08    0.83  999.90  999.90  999.90       0       0
 27.000   0.000   0.000  999.90  219.77    3.15    0.86  999.90  999.90  999.90       0       0
 27.500   0.000   0.000  999.90  220.75    3.31    0.83  999.90  999.90  999.90       0       0
 28.000   0.000   0.000  999.90  221.72    3.49    0.71  999.90  999.90  999.90       0       0
 28.500   0.000   0.000  999.90  222.57    3.74    0.66  999.90  999.90  999.90       0       0
 29.000   0.000   0.000  999.90  223.52    3.89    0.64  999.90  999.90  999.90       0       0
 29.500   0.000   0.000  999.90  224.55    3.89    0.48  999.90  999.90  999.90       0       0
 30.000   0.000   0.000  999.90  225.56    3.84    0.34  999.90  999.90  999.90       0       0
  T A B L E  III -   3.  M O I S T U R E  R E L A T E D  S T A T I S T I C A L  P A R A M E T E R S
                                     March
 Station =   74794      Cape Canaveral Air Force Station
      Z VAPOR P   SD VP SKEW VP      TV      TV SKEW TV DEWPT T  SD DPT SKW DPT NOBS TP NOBS TV   
           MEAN                    MEAN      SD            MEAN                                   
     KM      MB      MB          KELVIN  KELVIN          KELVIN  KELVIN                           
  0.000  16.000   6.000    0.00  291.00    6.00    0.00  290.00    7.00    0.00     100     100
  0.004  17.140   6.207    0.16  293.89    6.05   -0.35  287.21    6.26   -0.71    1424    1424
  0.500  14.541   5.753    0.18  291.67    4.98   -0.65  284.47    6.86   -0.76    1424    1424
  1.000  11.517   4.904    0.03  288.16    4.85   -0.56  280.62    7.90   -1.21    1424    1424
  1.500   8.611   4.548    0.10  285.33    4.55   -0.42  275.36   10.19   -1.10    1424    1424
  2.000   5.897   3.722    0.46  283.22    4.20   -0.21  269.56   10.48   -0.59    1424    1424
  2.500   4.272   2.891    0.62  280.94    3.84   -0.09  265.12   10.26   -0.40    1424    1424
  3.000   3.240   2.300    0.83  278.38    3.55    0.02  261.54    9.92   -0.27    1424    1424
  3.500   2.509   1.771    0.96  275.54    3.37    0.11  258.50    9.49   -0.32    1424    1424
  4.000   1.896   1.364    1.16  272.58    3.30    0.14  255.12    9.22   -0.35    1424    1424
  4.500   1.473   1.088    1.38  269.51    3.34    0.22  252.20    8.85   -0.27    1424    1424
  5.000   1.155   0.861    1.45  266.33    3.46    0.32  249.40    8.65   -0.25    1424    1424
  5.500   0.903   0.687    1.41  263.10    3.62    0.40  246.53    8.69   -0.26    1424    1424
  6.000   0.704   0.532    1.47  259.83    3.71    0.48  243.87    8.47   -0.32    1424    1424
  6.500   0.552   0.419    1.44  256.47    3.78    0.53  241.23    8.41   -0.35    1424    1424
  7.000   0.434   0.325    1.34  252.98    3.90    0.54  238.72    8.35   -0.43    1424    1424
  7.500   0.332   0.239    1.18  249.44    3.97    0.56  236.10    8.09   -0.51    1424    1424
  8.000   0.247   0.174    1.13  245.85    4.04    0.58  233.29    7.75   -0.51    1424    1424
  8.500   0.177   0.124    1.21  242.18    4.09    0.57  230.22    7.32   -0.44    1424    1424
  9.000   0.122   0.083    1.25  238.45    4.10    0.55  227.03    6.65   -0.35    1424    1424
  9.500   0.083   0.054    1.24  234.68    4.10    0.53  223.63    6.19   -0.32    1424    1424
 10.000   0.054   0.034    1.23  230.95    4.03    0.54  220.09    5.85   -0.48    1423    1423
 10.500   0.035   0.021    1.14  227.39    3.90    0.56  216.74    5.34   -0.55    1423    1423
 11.000   0.023   0.013    1.12  224.09    3.80    0.51  213.50    4.96   -0.64    1422    1422
 11.500   0.016   0.008    1.00  221.16    3.71    0.43  210.64    4.49   -0.84    1409    1409
 12.000   0.010   0.007    0.44  218.72    3.65    0.32  208.46    4.36   -1.12    1229    1229
 12.500   0.006   0.006  999.90  216.66    3.68    0.06  206.37    4.90   -1.21     949     949
 13.000   0.004   0.005  999.90  214.88    3.50   -0.17  204.62    5.05   -1.11     803     803
 13.500   0.002   0.004  999.90  213.13    3.29   -0.36  203.65    4.89   -0.96     490     490
 14.000   0.001   0.002  999.90  211.29    3.15   -0.40  202.77    4.59   -0.99     255     255
 14.500   0.000   0.001  999.90  209.34    3.12   -0.43  202.84    4.50   -0.89      55      55
 15.000   0.000   0.000  999.90  207.37    3.24   -0.60  999.90  999.90  999.90       0       0
 15.500   0.000   0.000  999.90  205.48    3.41   -0.75  999.90  999.90  999.90       0       0
 16.000   0.000   0.000  999.90  203.79    3.57   -0.86  999.90  999.90  999.90       0       0
 16.500   0.000   0.000  999.90  202.45    3.81   -0.75  999.90  999.90  999.90       0       0
 17.000   0.000   0.000  999.90  201.55    3.95   -0.62  999.90  999.90  999.90       0       0
 17.500   0.000   0.000  999.90  201.23    3.93   -0.55  999.90  999.90  999.90       0       0
 18.000   0.000   0.000  999.90  201.46    3.77   -0.33  999.90  999.90  999.90       0       0
 18.500   0.000   0.000  999.90  202.16    3.50   -0.20  999.90  999.90  999.90       0       0
 19.000   0.000   0.000  999.90  203.23    3.38   -0.05  999.90  999.90  999.90       0       0
 19.500   0.000   0.000  999.90  204.59    3.35   -0.02  999.90  999.90  999.90       0       0
 20.000   0.000   0.000  999.90  206.15    3.10   -0.06  999.90  999.90  999.90       0       0
 20.500   0.000   0.000  999.90  207.76    2.86   -0.13  999.90  999.90  999.90       0       0
 21.000   0.000   0.000  999.90  209.18    2.67   -0.22  999.90  999.90  999.90       0       0
 21.500   0.000   0.000  999.90  210.52    2.52   -0.22  999.90  999.90  999.90       0       0
 22.000   0.000   0.000  999.90  211.75    2.41   -0.23  999.90  999.90  999.90       0       0
 22.500   0.000   0.000  999.90  212.96    2.38   -0.10  999.90  999.90  999.90       0       0
 23.000   0.000   0.000  999.90  213.93    2.31    0.09  999.90  999.90  999.90       0       0
 23.500   0.000   0.000  999.90  214.92    2.28    0.23  999.90  999.90  999.90       0       0
 24.000   0.000   0.000  999.90  215.91    2.32    0.26  999.90  999.90  999.90       0       0
 24.500   0.000   0.000  999.90  216.89    2.39    0.28  999.90  999.90  999.90       0       0
 25.000   0.000   0.000  999.90  217.93    2.47    0.41  999.90  999.90  999.90       0       0
 25.500   0.000   0.000  999.90  219.02    2.55    0.44  999.90  999.90  999.90       0       0
 26.000   0.000   0.000  999.90  220.03    2.63    0.37  999.90  999.90  999.90       0       0
 26.500   0.000   0.000  999.90  221.09    2.75    0.30  999.90  999.90  999.90       0       0
 27.000   0.000   0.000  999.90  222.24    2.74    0.22  999.90  999.90  999.90       0       0
 27.500   0.000   0.000  999.90  223.33    2.82    0.21  999.90  999.90  999.90       0       0
 28.000   0.000   0.000  999.90  224.58    2.89    0.12  999.90  999.90  999.90       0       0
 28.500   0.000   0.000  999.90  225.72    2.91    0.16  999.90  999.90  999.90       0       0
 29.000   0.000   0.000  999.90  226.85    3.04    0.03  999.90  999.90  999.90       0       0
 29.500   0.000   0.000  999.90  228.07    3.09    0.09  999.90  999.90  999.90       0       0
 30.000   0.000   0.000  999.90  229.14    3.12    0.09  999.90  999.90  999.90       0       0
  T A B L E  III -   4.  M O I S T U R E  R E L A T E D  S T A T I S T I C A L  P A R A M E T E R S
                                     April
 Station =   74794      Cape Canaveral Air Force Station
      Z VAPOR P   SD VP SKEW VP      TV      TV SKEW TV DEWPT T  SD DPT SKW DPT NOBS TP NOBS TV   
           MEAN                    MEAN      SD            MEAN                                   
     KM      MB      MB          KELVIN  KELVIN          KELVIN  KELVIN                           
  0.000  16.000   6.000    0.00  291.00    6.00    0.00  290.00    7.00    0.00     100     100
